365
368
366
369
371
374
371
373
377
377
381
382
386
389
391
398
406
411
410
414
428
434
437
445
451
456
453
454
459
459
453
445
443
433
417
404
397
388
373
363
360
354
346
343
346
344
339
338
342
342
339
339
342
347
341
340
345
349
347
344
348
351
347
349
350
351
349
347
353
355
352
347
350
352
345
344
348
349
345
345
349
350
345
344
347
351
350
349
352
353
349
354
359
360
364
367
376
378
372
367
366
367
365
362
360
355
347
343
345
348
345
343
347
346
345
347
352
348
346
347
364
384
414
467
531
585
538
393
256
139
74
123
213
291
339
354
357
360
361
368
371
373
374
375
377
377
379
383
386
389
389
394
399
402
402
407
417
422
423
431
441
446
448
457
461
464
459
456
456
455
446
434
424
416
402
394
384
374
362
357
357
349
344
342
343
344
339
337
342
342
339
342
343
342
342
341
346
348
345
342
344
347
345
345
346
347
342
341
345
346
343
343
346
349
345
343
345
346
342
343
343
342
342
346
349
353
348
350
357
361
362
366
373
374
369
365
360
362
359
360
357
351
343
335
341
343
337
339
344
344
340
340
346
345
341
342
355
370
396
438
502
565
562
441
296
168
71
83
169
254
317
348
355
355
350
355
363
367
368
368
375
374
372
379
386
389
386
391
398
399
399
401
410
416
422
429
434
443
447
454
457
461
458
459
459
455
443
435
428
418
405
394
383
371
361
354
352
348
343
339
340
338
331
333
338
338
335
337
341
341
337
337
341
341
341
342
347
346
343
343
347
344
339
341
349
345
340
342
345
343
339
343
345
345
341
341
346
349
345
349
351
353
349
353
359
364
369
368
366
359
357
359
359
353
345
343
340
340
337
338
343
343
340
343
345
342
337
340
340
348
363
393
444
500
561
563
456
311
178
81
92
171
254
318
349
352
351
356
360
363
362
365
370
369
370
372
380
378
376
383
393
395
393
398
408
412
413
418
428
434
441
451
454
455
454
457
461
456
447
440
437
426
409
396
388
378
366
359
355
348
344
342
341
337
335
333
339
339
333
337
343
343
338
342
346
343
339
343
345
343
339
343
345
345
345
346
347
344
343
341
347
346
344
346
345
345
346
347
348
347
348
348
352
354
355
358
361
364
366
368
369
363
361
363
366
361
354
352
348
344
342
345
349
348
345
349
353
349
344
347
350
351
356
378
410
456
513
575
557
431
283
161
82
112
195
280
339
359
358
361
371
372
371
376
381
383
380
384
390
392
388
391
399
402
404
405
411
414
415
423
433
437
440
449
458
458
460
463
468
466
460
456
451
442
427
417
409
396
383
379
375
364
357
355
352
348
346
347
350
347
345
347
348
346
342
346
348
350
347
350
350
347
345
345
352
354
350
351
351
352
349
351
353
351
348
350
354
350
349
353
353
353
349
355
357
360
360
363
367
373
371
370
369
363
358
360
363
355
345
343
345
343
346
345
347
346
343
347
351
349
345
346
355
364
382
420
475
540
583
524
379
239
117
69
134
221
295
343
358
355
355
363
367
369
369
373
378
380
380
382
387
386
386
391
397
398
399
406
413
417
420
428
437
442
444
450
459
461
461
464
474
463
456
447
442
429
416
406
396
382
371
365
362
352
345
347
347
343
340
342
345
344
340
341
344
342
343
345
349
343
342
347
349
344
341
345
347
348
346
346
348
345
343
345
345
345
340
345
347
345
344
347
351
352
353
357
358
355
354
363
368
364
360
359
359
355
351
351
345
337
334
341
342
338
335
338
339
334
334
338
341
338
336
350
369
397
442
506
575
555
434
289
156
64
93
185
270
323
342
346
354
356
355
357
363
362
364
371
376
373
374
381
385
383
387
392
394
396
401
409
415
421
424
434
440
445
450
454
455
451
448
448
444
438
429
418
408
393
383
378
370
358
347
345
342
335
332
337
337
335
333
336
336
333
334
338
341
339
337
338
343
342
342
343
345
339
340
346
346
343
341
345
346
343
343
344
347
344
341
343
344
345
342
348
352
347
345
352
360
362
364
362
357
352
351
354
352
343
338
339
342
339
338
342
342
341
338
343
344
342
340
344
351
362
383
428
491
561
581
493
350
209
101
93
170
247
307
343
352
352
353
361
364
365
369
371
375
375
375
378
381
383
383
389
394
397
401
406
411
414
420
430
438
440
445
453
456
459
458
460
457
450
443
435
428
417
404
398
384
372
366
364
358
349
346
347
346
343
340
344
348
348
343
350
347
345
344
349
349
348
350
355
355
351
351
355
357
354
354
357
356
350
352
358
358
356
355
358
361
355
354
355
356
356
361
365
363
362
368
379
385
378
375
377
375
369
364
363
357
352
353
354
355
350
350
351
356
350
350
353
352
349
351
371
394
432
489
554
596
513
363
230
117
86
152
241
315
347
352
356
360
357
361
369
373
374
375
378
378
378
382
388
391
393
393
400
403
404
408
416
423
425
433
444
447
447
455
458
458
452
447
452
449
437
425
415
406
392
380
374
367
354
346
349
346
339
335
337
338
334
337
340
341
336
337
342
343
341
336
340
343
341
344
346
344
340
342
346
343
340
340
342
343
337
339
344
345
342
341
342
342
339
341
345
344
340
339
346
347
347
347
350
354
360
365
365
364
356
353
356
352
342
336
337
337
332
333
337
334
329
329
334
339
337
334
336
341
350
370
412
461
524
575
529
378
225
104
62
127
212
286
336
350
347
348
357
360
358
362
371
370
368
369
374
375
375
378
387
392
389
389
395
402
405
409
419
426
431
437
448
452
447
450
454
450
445
441
436
424
408
401
394
382
365
357
352
344
335
334
338
332
327
327
328
327
325
327
327
326
326
323
327
333
329
324
330
334
331
333
335
333
329
330
334
333
330
325
329
329
324
324
326
326
326
323
324
323
322
324
326
328
325
327
331
336
337
333
339
345
349
349
349
343
339
342
342
336
326
323
322
325
329
329
329
328
322
326
332
335
328
329
333
336
343
365
406
455
519
568
514
378
231
106
61
125
213
287
333
345
340
344
352
357
354
360
363
368
367
372
376
379
378
380
385
387
387
391
400
404
407
414
428
431
435
441
451
456
457
457
458
458
453
450
444
433
419
408
404
391
376
368
364
356
348
347
350
348
342
339
343
344
340
342
345
345
342
345
352
350
347
351
355
354
349
348
353
355
353
353
357
356
352
352
355
356
354
355
358
357
353
354
359
358
358
359
357
357
355
359
364
364
363
365
377
386
382
378
375
372
370
368
366
359
351
351
356
354
353
355
360
358
356
356
358
362
355
360
373
387
416
469
538
596
556
428
282
157
89
135
226
302
347
364
368
369
365
370
379
380
378
383
388
387
385
390
394
395
393
400
406
409
406
415
425
432
438
441
451
451
455
461
468
468
465
465
467
460
451
440
437
425
410
398
390
381
370
368
364
354
350
351
355
350
346
348
351
349
349
350
350
350
346
349
355
354
347
346
350
351
348
354
356
354
351
350
353
351
349
348
353
352
346
348
354
351
347
347
352
349
347
350
351
351
350
353
358
359
355
357
365
371
373
371
372
367
361
361
359
350
342
342
348
347
345
345
348
347
343
346
346
347
342
343
355
371
392
436
496
560
579
480
329
193
88
86
166
249
316
351
359
359
357
363
370
373
368
373
376
379
378
383
386
387
386
391
398
402
401
407
415
419
425
431
440
441
445
453
460
460
458
459
461
455
449
438
433
423
408
397
387
377
364
357
354
348
338
337
340
337
335
337
337
337
335
334
338
340
339
339
344
344
340
342
346
344
338
343
346
344
343
345
347
345
344
347
349
347
341
344
349
347
343
343
347
345
344
349
345
345
344
348
352
353
353
355
364
370
368
366
363
358
357
359
356
345
335
336
341
337
337
339
344
340
337
339
344
342
340
340
348
361
384
428
483
547
569
480
329
188
77
67
152
235
300
339
351
350
346
353
360
362
361
367
371
368
367
371
376
378
378
384
388
391
391
401
407
410
414
423
430
431
436
445
453
453
452
454
455
448
442
433
428
416
401
393
385
371
357
353
352
346
339
342
343
335
332
333
334
331
330
330
333
334
333
336
340
336
333
339
345
340
335
340
343
340
338
338
344
341
338
338
340
337
333
338
342
337
337
340
343
342
344
345
344
344
346
354
366
366
358
361
362
359
346
344
342
337
334
338
341
340
338
339
341
338
339
341
346
345
343
350
369
397
445
504
572
559
441
299
169
78
99
185
266
322
346
353
356
358
359
365
372
372
370
374
377
375
376
380
383
385
384
390
397
400
400
405
411
417
422
430
439
444
446
452
455
452
452
455
450
440
429
422
414
396
387
380
373
361
349
349
349
344
340
341
343
337
334
338
338
338
337
342
345
341
340
341
345
343
342
342
345
344
344
347
348
343
342
345
347
343
343
343
343
344
344
349
349
347
343
350
353
351
351
355
359
360
362
369
368
363
360
362
358
350
345
342
346
345
344
348
351
349
345
349
351
347
346
351
358
370
397
443
504
566
573
462
319
186
84
91
173
255
322
353
357
355
354
361
366
366
366
368
374
376
376
380
383
385
383
388
393
393
395
404
412
414
419
427
433
438
443
450
455
456
455
457
456
448
439
434
428
415
402
393
383
371
362
355
348
340
338
341
342
342
337
338
339
336
335
341
344
339
338
341
341
341
337
342
343
343
344
340
339
339
342
345
345
338
340
345
345
338
339
343
344
343
344
343
347
347
349
353
353
353
359
369
373
369
364
360
362
357
351
344
340
338
341
341
342
338
338
340
345
342
343
344
343
342
353
381
417
461
520
583
542
393
242
125
68
117
203
286
342
356
356
360
366
363
365
375
379
377
378
383
389
386
386
392
400
400
400
406
409
415
416
425
432
432
439
449
454
458
460
466
465
462
456
455
450
438
426
416
407
397
384
379
371
360
351
352
350
346
342
344
343
340
342
344
347
342
340
345
348
345
345
347
350
347
346
350
350
347
345
351
351
346
346
348
351
348
345
348
350
347
342
344
346
347
350
353
356
353
354
362
367
366
365
365
358
351
346
347
345
337
336
343
343
342
341
345
345
343
343
342
340
340
350
369
396
435
490
559
568
457
304
169
70
79
166
256
315
343
347
352
358
360
364
367
371
371
373
375
379
377
380
387
389
387
387
397
406
407
410
417
423
424
432
444
450
450
451
457
459
456
451
452
450
440
425
417
404
394
385
378
369
358
354
351
349
346
341
344
345
340
340
347
346
345
345
350
349
346
348
351
351
349
349
352
350
350
349
351
353
347
345
350
351
347
346
350
350
346
347
349
352
352
349
353
353
353
356
364
371
369
368
369
366
360
357
353
347
342
340
344
347
344
343
347
344
344
345
348
346
342
343
363
385
414
468
540
588
528
386
246
123
74
135
225
296
340
360
363
365
361
366
373
374
373
374
381
382
381
385
385
388
390
393
400
403
402
405
415
423
426
435
443
448
450
455
463
464
460
459
460
453
442
433
427
417
401
389
380
373
365
355
356
352
344
340
341
342
339
339
341
344
341
339
346
348
344
342
346
348
343
345
349
348
346
345
349
350
349
347
349
351
348
347
349
351
347
348
350
351
345
346
351
354
351
353
355
359
358
361
368
369
367
367
365
363
355
350
348
346
342
344
346
341
341
343
346
346
341
342
345
345
348
360
386
425
475
534
583
516
363
217
107
71
133
222
304
346
352
349
355
362
362
364
367
370
367
372
378
376
377
382
390
389
385
387
394
401
404
405
414
423
424
430
441
447
448
452
458
458
450
448
447
441
429
419
408
397
382
377
368
359
346
342
345
342
338
337
339
338
333
335
338
337
335
333
336
344
345
343
348
348
342
343
347
350
345
345
349
348
345
344
350
350
347
346
347
349
345
344
346
343
341
344
347
346
342
345
347
346
345
352
356
355
354
362
369
369
368
372
370
364
354
351
350
345
342
345
351
346
345
346
347
347
341
344
350
348
351
362
384
421
473
536
588
538
386
236
120
73
127
212
295
344
359
358
362
365
365
370
374
376
374
377
385
384
380
385
391
395
392
398
403
406
405
413
423
429
430
435
444
454
452
459
463
461
460
458
456
444
433
425
417
405
389
379
371
363
356
349
349
346
339
337
338
334
333
336
342
340
337
337
344
344
343
341
343
343
339
345
343
345
341
345
348
346
342
344
346
345
343
346
347
347
343
342
348
347
343
342
347
346
342
343
347
348
341
343
349
354
352
357
358
361
366
373
376
371
360
358
357
353
345
342
343
338
337
340
342
343
343
347
350
347
342
342
349
361
376
411
466
530
578
538
402
256
131
74
129
211
284
333
354
356
356
361
366
366
368
369
372
372
373
381
384
384
383
387
392
396
397
403
407
411
413
420
430
438
438
446
456
460
459
457
460
454
448
444
436
427
414
406
396
385
372
362
359
355
346
346
346
344
339
339
343
343
339
339
343
341
339
344
348
350
348
344
345
345
343
347
350
348
346
348
349
347
344
349
349
348
345
346
348
346
344
349
348
348
343
346
348
344
342
347
349
347
347
353
355
355
353
356
365
369
370
368
372
371
365
360
359
351
345
348
351
347
346
348
352
349
347
344
351
350
346
352
367
388
425
479
546
589
517
373
237
124
82
147
232
307
349
360
363
359
363
368
374
375
374
379
381
381
379
385
391
390
389
397
402
402
407
415
420
423
431
440
445
451
456
452
458
458
457
462
464
454
444
437
429
416
404
393
386
377
366
359
356
351
344
345
347
343
341
343
347
344
342
345
345
343
341
344
344
344
348
347
351
348
345
349
353
349
344
348
351
348
346
349
349
348
347
346
349
347
345
347
351
345
347
347
348
345
347
348
349
348
345
351
354
350
348
354
358
358
354
356
368
373
370
369
372
364
360
361
361
350
343
345
343
345
344
347
348
346
347
352
352
347
344
349
364
382
410
463
524
581
544
408
262
139
74
119
208
283
336
356
359
357
361
366
370
370
369
373
375
376
377
381
384
383
385
389
397
399
398
404
411
411
415
427
439
439
441
449
457
454
453
455
455
450
442
432
426
416
400
390
382
371
362
358
351
343
336
339
337
334
332
329
332
335
334
335
336
335
332
336
339
337
333
339
342
336
331
338
343
341
337
341
343
342
336
335
343
344
340
340
344
339
337
340
339
336
335
339
343
339
341
340
344
341
341
344
347
350
349
352
355
354
357
369
373
367
357
361
361
358
357
355
351
340
335
338
341
339
340
344
345
343
340
346
350
346
341
352
370
397
441
507
576
569
445
299
171
80
101
187
271
326
349
357
357
358
363
368
372
370
370
374
377
377
377
383
386
386
387
394
401
398
401
411
418
420
425
434
441
445
450
455
461
459
459
454
453
446
435
428
420
405
391
387
379
368
359
354
353
348
345
344
344
342
334
337
345
339
336
338
341
340
341
349
351
347
343
348
352
349
346
350
353
349
346
350
352
350
347
351
351
347
347
350
352
348
350
352
353
352
351
352
352
350
351
354
357
352
354
357
361
363
361
365
370
376
377
376
370
363
363
370
369
360
352
350
349
345
345
346
351
345
344
350
351
348
346
345
350
358
375
409
462
519
575
560
429
280
156
81
113
190
273
338
362
358
354
362
370
368
370
375
379
378
375
381
389
388
387
391
398
400
398
408
412
413
413
421
431
436
439
447
453
456
456
461
463
457
453
447
443
427
417
412
400
386
374
368
364
355
349
345
347
344
341
340
342
338
338
343
342
336
340
344
346
341
345
347
347
344
341
346
347
347
344
348
350
345
343
346
348
347
342
349
346
343
343
346
350
345
344
347
352
348
345
347
348
347
347
352
358
356
355
359
364
365
369
378
376
365
359
362
367
363
355
352
348
340
338
345
344
339
339
344
347
344
342
341
343
345
355
378
408
462
524
581
541
398
253
139
76
115
200
286
337
353
355
359
366
366
366
370
372
374
377
381
385
380
382
389
393
389
393
399
403
402
406
417
427
428
432
442
450
450
457
459
460
455
454
458
452
440
429
423
410
397
386
376
369
357
347
347
347
342
342
344
340
335
336
337
338
335
335
341
341
337
336
339
341
342
342
343
343
340
338
342
343
342
339
345
347
345
346
348
347
346
344
346
357
357
337
335
341
341
342
345
351
347
349
356
357
354
355
364
370
371
369
365
364
360
358
363
358
350
343
341
342
339
341
344
346
341
341
343
343
342
343
346
353
366
390
440
503
567
572
470
325
187
84
96
178
259
321
350
354
352
356
367
369
368
369
377
381
379
379
381
387
387
388
395
397
397
399
407
413
416
422
424
436
443
450
453
457
455
458
463
466
456
450
445
435
422
411
406
396
380
370
368
362
356
348
349
350
346
345
347
345
342
341
347
347
344
345
351
350
345
347
347
349
349
349
351
353
352
353
354
355
350
349
354
353
351
350
356
357
351
350
352
353
351
351
352
356
353
352
357
361
360
360
366
374
377
380
379
375
367
366
373
371
365
356
355
355
352
352
358
357
353
353
355
355
352
351
350
356
362
382
418
466
521
582
559
424
274
149
83
123
205
283
341
361
361
364
367
373
375
375
382
383
378
382
385
390
389
393
397
395
397
402
409
412
415
419
428
435
438
443
450
454
456
458
465
465
459
454
452
444
433
423
417
402
389
380
373
364
353
350
350
348
344
338
342
341
339
338
341
340
337
340
345
344
341
343
347
345
344
346
348
346
344
344
345
346
341
345
348
347
343
346
348
346
341
343
344
345
342
340
343
341
342
347
351
352
347
352
357
358
359
369
376
369
360
356
357
358
351
346
343
339
338
338
341
339
337
336
343
343
341
342
343
341
344
358
387
425
477
542
580
495
337
199
93
73
137
227
307
345
351
350
355
362
359
363
367
372
371
373
377
378
378
381
388
391
387
390
397
403
405
410
421
423
426
435
442
447
448
455
459
456
455
448
449
442
432
421
417
406
390
379
373
363
354
351
349
345
341
338
340
338
334
338
343
344
338
337
343
343
341
342
346
344
345
344
342
341
342
343
346
347
343
340
344
343
341
344
346
346
339
342
345
344
340
342
347
348
346
347
352
356
352