588
464
464
588
512
436
560
560
440
516
600
488
500
636
568
504
636
648
536
624
712
576
564
676
592
504
616
604
472
536
600
468
468
592
516
440
560
560
436
512
588
464
464
588
512
436
524
488
332
468
600
536
592
776
756
736
920
824
608
588
568
352
256
288
312
336
560
560
436
512
588
468
468
588
512
436
560
560
440
516
592
468
468
592
516
440
564
564
440
516
592
472
472
592
520
448
576
580
464
544
624
508
512
640
572
500
616
612
484
556
624
496
492
608
528
448
564
564
440
516
592
464
464
588
512
436
560
560
436
512
588
464
464
588
512
436
560
560
436
512
588
464
464
588
512
436
560
560
436
512
588
464
464
588
512
436
560
560
440
516
600
488
500
636
568
504
636
648
536
624
712
576
564
676
592
504
616
604
472
536
600
468
468
592
516
440
560
560
436
512
588
464
464
588
512
436
524
488
332
468
600
536
592
776
756
736
920
824
608
588
568
352
256
288
312
336
560
560
436
512
588
468
468
588
512
436
560
560
440
516
592
468
468
592
516
440
564
564
440
516
592
472
472
592
520
448
576
580
464
544
624
508
512
640
572
500
616
612
484
556
624
496
492
608
528
448
564
564
440
516
592
464
464
588
512
436
560
560
436
512
588
464
464
588
512
436
560
560
436
512
588
464
464
588
512
436
560
560
436
512
588
464
464
588
512
436
560
560
440
516
600
488
500
636
568
504
636
648
536
624
712
576
564
676
592
504
616
604
472
536
600
468
468
592
516
440
560
560
436
512
588
464
464
588
512
436
524
488
332
468
600
536
592
776
756
736
920
824
608
588
568
352
256
288
312
336
560
560
436
512
588
468
468
588
512
436
560
560
440
516
592
468
468
592
516
440
564
564
440
516
592
472
472
592
520
448
576
580
464
544
624
508
512
640
572
500
616
612
484
556
624
496
492
608
528
448
564
564
440
516
592
464
464
588
512
436
560
560
436
512
588
464
464
588
512
436
560
560
436
512
588
464
464
588
512
436
560
560
436
512
588
464
464
588
512
436
560
560
440
516
600
488
500
636
568
504
636
648
536
624
712
576
564
676
592
504
616
604
472
536
600
468
468
592
516
440
560
560
436
512
588
464
464
588
512
436
524
488
332
468
600
536
592
776
756
736
920
824
608
588
568
352
256
288
312
336
560
560
436
512
588
468
468
588
512
436
560
560
440
516
592
468
468
592
516
440
564
564
440
516
592
472
472
592
520
448
576
580
464
544
624
508
512
640
572
500
616
612
484
556
624
496
492
608
528
448
564
564
440
516
592
464
464
588
512
436
560
560
436
512
588
464
464
588
512
436
560
560
436
512
588
464
464
588
512
436
560
560
436
512
588
464
464
588
512
436
560
560
440
516
600
488
500
636
568
504
636
648
536
624
712
576
564
676
592
504
616
604
472
536
600
468
468
592
516
440
560
560
436
512
588
464
464
588
512
436
524
488
332
468
600
536
592
776
756
736
920
824
608
588
568
352
256
288
312
336
560
560
436
512
588
468
468
588
512
436
560
560
440
516
592
468
468
592
516
440
564
564
440
516
592
472
472
592
520
448
576
580
464
544
624
508
512
640
572
500
616
612
484
556
624
496
492
608
528
448
564
564
440
516
592
464
464
588
512
436
560
560
436
512
588
464
464
588
512
436
560
560
436
512
588
464
464
588
512
436
560
560
436
512
588
464
464
588
512
436
560
560
440
516
600
488
500
636
568
504
636
648
536
624
712
576
564
676
592
504
616
604
472
536
600
468
468
592
516
440
560
560
436
512
588
464
464
588
512
436
524
488
332
468
600
536
592
776
756
736
920
824
608
588
568
352
256
288
312
336
560
560
436
512
588
468
468
588
512
436
560
560
440
516
592
468
468
592
516
440
564
564
440
516
592
472
472
592
520
448
576
580
464
544
624
508
512
640
572
500
616
612
484
556
624
496
492
608
528
448
564
564
440
516
592
464
464
588
512
436
560
560
436
512
588
464
464
588
512
436
560
560
436
512
588
464
464
588
512
436
560
560
436
512
588
464
464
588
512
436
560
560
440
516
600
488
500
636
568
504
636
648
536
624
712
576
564
676
592
504
616
604
472
536
600
468
468
592
516
440
560
560
436
512
588
464
464
588
512
436
524
488
332
468
600
536
592
776
756
736
920
824
608
588
568
352
256
288
312
336
560
560
436
512
588
468
468
588
512
436
560
560
440
516
592
468
468
592
516
440
564
564
440
516
592
472
472
592
520
448
576
580
464
544
624
508
512
640
572
500
616
612
484
556
624
496
492
608
528
448
564
564
440
516
592
464
464
588
512
436
560
560
436
512
588
464
464
588
512
436
560
560
436
512
588
464
464
588
512
436
560
560
436
512
588
464
464
588
512
436
560
560
440
516
600
488
500
636
568
504
636
648
536
624
712
576
564
676
592
504
616
604
472
536
600
468
468
592
516
440
560
560
436
512
588
464
464
588
512
436
524
488
332
468
600
536
592
776
756
736
920
824
608
588
568
352
256
288
312
336
560
560
436
512
588
468
468
588
512
436
560
560
440
516
592
468
468
592
516
440
564
564
440
516
592
472
472
592
520
448
576
580
464
544
624
508
512
640
572
500
616
612
484
556
624
496
492
608
528
448
564
564
440
516
592
464
464
588
512
436
560
560
436
512
588
464
464
588
512
436
560
560
436
512
588
464
464
588
512
436
560
560
436
512
588
464
464
588
512
436
560
560
440
516
600
488
500
636
568
504
636
648
536
624
712
576
564
676
592
504
616
604
472
536
600
468
468
592
516
440
560
560
436
512
588
464
464
588
512
436
524
488
332
468
600
536
592
776
756
736
920
824
608
588
568
352
256
288
312
336
560
560
436
512
588
468
468
588
512
436
560
560
440
516
592
468
468
592
516
440
564
564
440
516
592
472
472
592
520
448
576
580
464
544
624
508
512
640
572
500
616
612
484
556
624
496
492
608
528
448
564
564
440
516
592
464
464
588
512
436
560
560
436
512
588
464
464
588
512
436
560
560
436
512
588
464
464
588
512
436
560
560
436
512
588
464
464
588
512
436
560
560
440
516
600
488
500
636
568
504
636
648
536
624
712
576
564
676
592
504
616
604
472
536
600
468
468
592
516
440
560
560
436
512
588
464
464
588
512
436
524
488
332
468
600
536
592
776
756
736
920
824
608
588
568
352
256
288
312
336
560
560
436
512
588
468
468
588
512
436
560
560
440
516
592
468
468
592
516
440
564
564
440
516
592
472
472
592
520
448
576
580
464
544
624
508
512
640
572
500
616
612
484
556
624
496
492
608
528
448
564
564
440
516
592
464
464
588
512
436
560
560
436
512
588
464
464
588
512
436
560
560
436
512
588
464
464
588
512
436
560
560
436
512
588
464
464
588
512
436
560
560
440
516
600
488
500
636
568
504
636
648
536
624
712
576
564
676
592
504
616
604
472
536
600
468
468
592
516
440
560
560
436
512
588
464
464
588
512
436
524
488
332
468
600
536
592
776
756
736
920
824
608
588
568
352
256
288
312
336
560
560
436
512
588
468
468
588
512
436
560
560
440
516
592
468
468
592
516
440
564
564
440
516
592
472
472
592
520
448
576
580
464
544
624
508
512
640
572
500
616
612
484
556
624
496
492
608
528
448
564
564
440
516
592
464
464
588
512
436
560
560
436
512
588
464
464
588
512
436
560
560
436
512
588
464
464
588
512
436
560
560
436
512
588
464
464
588
512
436
560
560
440
516
600
488
500
636
568
504
636
648
536
624
712
576
564
676
592
504
616
604
472
536
600
468
468
592
516
440
560
560
436
512
588
464
464
588
512
436
524
488
332
468
600
536
592
776
756
736
920
824
608
588
568
352
256
288
312
336
560
560
436
512
588
468
468
588
512
436
560
560
440
516
592
468
468
592
516
440
564
564
440
516
592
472
472
592
520
448
576
580
464
544
624
508
512
640
572
500
616
612
484
556
624
496
492
608
528
448
564
564
440
516
592
464
464
588
512
436
560
560
436
512
588
464
464
588
512
436
560
560
436
512
588
464
464
588
512
436
560
560
436
512
588
464
464
588
512
436
560
560
440
516
600
488
500
636
568
504
636
648
536
624
712
576
564
676
592
504
616
604
472
536
600
468
468
592
516
440
560
560
436
512
588
464
464
588
512
436
524
488
332
468
600
536
592
776
756
736
920
824
608
588
568
352
256
288
312
336
560
560
436
512
588
468
468
588
512
436
560
560
440
516
592
468
468
592
516
440
564
564
440
516
592
472
472
592
520
448
576
580
464
544
624
508
512
640
572
500
616
612
484
556
624
496
492
608
528
448
564
564
440
516
592
464
464
588
512
436
560
560
436
512
588
464
464
588
512
436
560
560
436
512
588
464
464
588
512
436
560
560
436
512
588
464
464
588
512
436
560
560
440
516
600
488
500
636
568
504
636
648
536
624
712
576
564
676
592
504
616
604
472
536
600
468
468
592
516
440
560
560
436
512
588
464
464
588
512
436
524
488
332
468
600
536
592
776
756
736
920
824
608
588
568
352
256
288
312
336
560
560
436
512
588
468
468
588
512
436
560
560
440
516
592
468
468
592
516
440
564
564
440
516
592
472
472
592
520
448
576
580
464
544
624
508
512
640
572
500
616
612
484
556
624
496
492
608
528
448
564
564
440
516
592
464
464
588
512
436
560
560
436
512
588
464
464
588
512
436
560
560
436
512
588
464
464
588
512
436
560
560
436
512
588
464
464
588
512
436
560
560
440
516
600
488
500
636
568
504
636
648
536
624
712
576
564
676
592
504
616
604
472
536
600
468
468
592
516
440
560
560
436
512
588
464
464
588
512
436
524
488
332
468
600
536
592
776
756
736
920
824
608
588
568
352
256
288
312
336
560
560
436
512
588
468
468
588
512
436
560
560
440
516
592
468
468
592
516
440
564
564
440
516
592
472
472
592
520
448
576
580
464
544
624
508
512
640
572
500
616
612
484
556
624
496
492
608
528
448
564
564
440
516
592
464
464
588
512
436
560
560
436
512
588
464
464
588
512
436
560
560
436
512
588
464
464
588
512
436
560
560
436
512
588
464
464
588
512
436
560
560
440
516
600
488
500
636
568
504
636
648
536
624
712
576
564
676
592
504
616
604
472
536
600
468
468
592
516
440
560
560
436
512
588
464
464
588
512
436
524
488
332
468
600
536
592
776
756
736
920
824
608
588
568
352
256
288
312
336
560
560
436
512
588
468
468
588
512
436
560
560
440
516
592
468
468
592
516
440
564
564
440
516
592
472
472
592
520
448
576
580
464
544
624
508
512
640
572
500
616
612
484
556
624
496
492
608
528
448
564
564
440
516
592
464
464
588
512
436
560
560
436
512
588
464
464
588
512
436
560
560
436
512
588
464
464
588
512
436
560
560
436
512
588
464
464
588
512
436
560
560
440
516
600
488
500
636
568
504
636
648
536
624
712
576
564
676
592
504
616
604
472
536
600
468
468
592
516
440
560
560
436
512
588
464
464
588
512
436
524
488
332
468
600
536
592
776
756
736
920
824
608
588
568
352
256
288
312
336
560
560
436
512
588
468
468
588
512
436
560
560
440
516
592
468
468
592
516
440
564
564
440
516
592
472
472
592
520
448
576
580
464
544
624
508
512
640
572
500
616
612
484
556
624
496
492
608
528
448
564
564
440
516
592
464
464
588
512
436
560
560
436
512
588
464
464
588
512
436
560
560
436
512
588
464
464
588
512
436
560
560
436
512
588
464
464
588
512
436
560
560
440
516
600
488
500
636
568
504
636
648
536
624
712
576
564
676
592
504
616
604
472
536
600
468
468
592
516
440
560
560
436
512
588
464
464
588
512
436
524
488
332
468
600
536
592
776
756
736
920
824
608
588
568
352
256
288
312
336
560
560
436
512
588
468
468
588
512
436
560
560
440
516
592
468
468
592
516
440
564
564
440
516
592
472
472
592
520
448
576
580
464
544
624
508
512
640
572
500
616
612
484
556
624
496
492
608
528
448
564
564
440
516
592
464
464
588
512
436
560
560
436
512
588
464
464
588
512
436
560
560
436
512
588
464
464
588
512
436
560
560
436
512
588
464
464
588
512
436
560
560
440
516
600
488
500
636
568
504
636
648
536
624
712
576
564
676
592
504
616
604
472
536
600
468
468
592
516
440
560
560
436
512
588
464
464
588
512
436
524
488
332
468
600
536
592
776
756
736
920
824
608
588
568
352
256
288
312
336
560
560
436
512
588
468
468
588
512
436
560
560
440
516
592
468
468
592
516
440
564
564
440
516
592
472
472
592
520
448
576
580
464
544
624
508
512
640
572
500
616
612
484
556
624
496
492
608
528
448
564
564
440
516
592
464
464
588
512
436
560
560
436
512
588
464
464
588
512
436
560
560
436
512
588
464
464
588
512
436
560
560
436
512
588
464
464
588
512
436
560
560
440
516
600
488
500
636
568
504
636
648
536
624
712
576
564
676
592
504
616
604
472
536
600
468
468
592
516
440
560
560
436
512
588
464
464
588
512
436
524
488
332
468
600
536
592
776
756
736
920
824
608
588
568
352
256
288
312
336
560
560
436
512
588
468
468
588
512
436
560
560
440
516
592
468
468
592
516
440
564
564
440
516
592
472
472
592
520
448
576
580
464
544
624
508
512
640
572
500
616
612
484
556
624
496
492
608
528
448
564
564
440
516
592
464
464
588
512
436
560
560
436
512
588
464
464
588
512
436
560
560
436
512
588
464
464
588
512
436
560
560
436
512
588
464
464
588
512
436
560
560
440
516
600
488
500
636
568
504
636
648
536
624
712
576
564
676
592
504
616
604
472
536
600
468
468
592
516
440
560
560
436
512
588
464
464
588
512
436
524
488
332
468
600
536
592
776
756
736
920
824
608
588
568
352
256
288
312
336
560
560
436
512
588
468
468
588
512
436
560
560
440
516
592
468
468
592
516
440
564
564
440
516
592
472
472
592
520
448
576
580
464
544
624
508
512
640
572
500
616
612
484
556
624
496
492
608
528
448
564
564
440
516
592
464
464
588
512
436
560
560
436
512
588
464
464
588
512
436
560
560
436
512
588
464
464
588
512
436
560
560
436
512
588
464
464
588
512
436
560
560
440
516
600
488
500
636
568
504
636
648
536
624
712
576
564
676
592
504
616
604
472
536
600
468
468
592
516
440
560
560
436
512
588
464
464
588
512
436
524
488
332
468
600
536
592
776
756
736
920
824
608
588
568
352
256
288
312
336
560
560
436
512
588
468
468
588
512
436
560
560
440
516
592
468
468
592
516
440
564
564
440
516
592
472
472
592
520
448
576
580
464
544
624
508
512
640
572
500
616
612
484
556
624
496
492
608
528
448
564
564
440
516
592
464
464
588
512
436
560
560
436
512
588
464
464
588
512
436
560
560
436
512
588
464
464
588
512
436
560
560
436
512
588
464
464
588
512
436
560
560
440
516
600
488
500
636
568
504
636
648
536
624
712
576
564
676
592
504
616
604
472
536
600
468
468
592
516
440
560
560
436
512
588
464
464
588
512
436
524
488
332
468
600
536
592
776
756
736
920
824
608
588
568
352
256
288
312
336
560
560
436
512
588
468
468
588
512
436
560
560
440
516
592
468
468
592
516
440
564
564
440
516
592
472
472
592
520
448
576
580
464
544
624
508
512
640
572
500
616
612
484
556
624
496
492
608
528
448
564
564
440
516
592
464
464
588
512
436
560
560
436
512
588
464
464
588
512
436
560
560
436
512
588
464
464
588
512
436
560
560
436
512
588
464
464
588
512
436
560
560
440
516
600
488
500
636
568
504
636
648
536
624
712
576
564
676
592
504
616
604
472
536
600
468
468
592
516
440
560
560
436
512
588
464
464
588
512
436
524
488
332
468
600
536
592
776
756
736
920
824
608
588
568
352
256
288
312
336
560
560
436
512
588
468
468
588
512
436
560
560
440
516
592
468
468
592
516
440
564
564
440
516
592
472
472
592
520
448
576
580
464
544
624
508
512
640
572
500
616
612
484
556
624
496
492
608
528
448
564
564
440
516
592
464
464
588
512
436
560
560
436
512
588
464
464
588
512
436
560
560
436
512
588
464
464
588
512
436
560
560
436
512
588
464
464
588
512
436
560
560
440
516
600
488
500
636
568
504
636
648
536
624
712
576
564
676
592
504
616
604
472
536
600
468
468
592
516
440
560
560
436
512
588
464
464
588
512
436
524
488
332
468
600
536
592
776
756
736
920
824
608
588
568
352
256
288
312
336
560
560
436
512
588
468
468
588
512
436
560
560
440
516
592
468
468
592
516
440
564
564
440
516
592
472
472
592
520
448
576
580
464
544
624
508
512
640
572
500
616
612
484
556
624
496
492
608
528
448
564
564
440
516
592
464
464
588
512
436
560
560
436
512
588
464
464
588
512
436
560
560
436
512
588
464
464
588
512
436
560
560
436
512
588
464
464
588
512
436
560
560
440
516
600
488
500
636
568
504
636
648
536
624
712
576
564
676
592
504
616
604
472
536
600
468
468
592
516
440
560
560
436
512
588
464
464
588
512
436
524
488
332
468
600
536
592
776
756
736
920
824
608
588
568
352
256
288
312
336
560
560
436
512
588
468
468
588
512
436
560
560
440
516
592
468
468
592
516
440
564
564
440
516
592
472
472
592
520
448
576
580
464
544
624
508
512
640
572
500
616
612
484
556
624
496
492
608
528
448
564
564
440
516
592
464
464
588
512
436
560
560
436
512
588
464
464
588
512
436
560
560
436
512
588
464
464
588
512
436
560
560
436
512
588
464
464
588
512
436
560
560
440
516
600
488
500
636
568
504
636
648
536
624
712
576
564
676
592
504
616
604
472
536
600
468
468
592
516
440
560
560
436
512
588
464
464
588
512
436
524
488
332
468
600
536
592
776
756
736
920
824
608
588
568
352
256
288
312
336
560
560
436
512
588
468
468
588
512
436
560
560
440
516
592
468
468
592
516
440
564
564
440
516
592
472
472
592
520
448
576
580
464
544