592
512
432
512
592
512
436
516
596
516
444
536
628
560
488
580
672
600
532
624
716
624
532
600
672
580
488
560
628
536
444
516
596
516
436
516
592
512
432
512
592
512
432
512
592
512
396
444
488
468
444
584
720
700
676
816
952
776
604
588
572
400
224
208
392
412
432
512
592
512
432
512
592
512
432
512
596
516
436
516
596
516
436
516
596
516
436
516
596
516
436
516
596
516
440
524
608
532
460
544
628
556
480
564
652
576
492
564
640
556
468
544
620
532
448
524
600
516
436
516
596
512
432
512
592
512
432
512
592
512
432
512
592
512
432
512
592
512
432
512
592
512
432
512
592
512
432
512
592
512
432
512
592
512
432
512
596
516
436
516
604
536
468
560
648
580
512
600
692
624
556
624
692
600
512
580
648
560
468
536
604
516
436
516
596
516
432
512
592
512
432
512
592
512
432
512
556
444
328
468
604
584
560
700
836
816
792
776
764
588
412
400
384
208
232
412
592
512
432
512
592
512
432
512
592
512
436
516
596
516
436
516
596
516
436
516
596
516
436
516
596
516
436
516
600
524
448
532
620
544
468
556
640
564
492
576
652
564
480
556
628
544
460
532
608
524
440
516
596
516
436
512
592
512
432
512
592
512
432
512
592
512
432
512
592
512
432
512
592
512
432
512
592
512
432
512
592
512
432
512
592
512
432
512
592
512
436
516
596
516
444
536
628
560
488
580
672
600
532
624
716
624
532
600
672
580
488
560
628
536
444
516
596
516
436
516
592
512
432
512
592
512
432
512
592
512
396
444
488
468
444
584
720
700
676
816
952
776
604
588
572
400
224
208
392
412
432
512
592
512
432
512
592
512
432
512
596
516
436
516
596
516
436
516
596
516
436
516
596
516
436
516
596
516
440
524
608
532
460
544
628
556
480
564
652
576
492
564
640
556
468
544
620
532
448
524
600
516
436
516
596
512
432
512
592
512
432
512
592
512
432
512
592
512
432
512
592
512
432
512
592
512
432
512
592
512
432
512
592
512
432
512
592
512
432
512
596
516
436
516
604
536
468
560
648
580
512
600
692
624
556
624
692
600
512
580
648
560
468
536
604
516
436
516
596
516
432
512
592
512
432
512
592
512
432
512
556
444
328
468
604
584
560
700
836
816
792
776
764
588
412
400
384
208
232
412
592
512
432
512
592
512
432
512
592
512
436
516
596
516
436
516
596
516
436
516
596
516
436
516
596
516
436
516
600
524
448
532
620
544
468
556
640
564
492
576
652
564
480
556
628
544
460
532
608
524
440
516
596
516
436
512
592
512
432
512
592
512
432
512
592
512
432
512
592
512
432
512
592
512
432
512
592
512
432
512
592
512
432
512
592
512
432
512
592
512
436
516
596
516
444
536
628
560
488
580
672
600
532
624
716
624
532
600
672
580
488
560
628
536
444
516
596
516
436
516
592
512
432
512
592
512
432
512
592
512
396
444
488
468
444
584
720
700
676
816
952
776
604
588
572
400
224
208
392
412
432
512
592
512
432
512
592
512
432
512
596
516
436
516
596
516
436
516
596
516
436
516
596
516
436
516
596
516
440
524
608
532
460
544
628
556
480
564
652
576
492
564
640
556
468
544
620
532
448
524
600
516
436
516
596
512
432
512
592
512
432
512
592
512
432
512
592
512
432
512
592
512
432
512
592
512
432
512
592
512
432
512
592
512
432
512
592
512
432
512
596
516
436
516
604
536
468
560
648
580
512
600
692
624
556
624
692
600
512
580
648
560
468
536
604
516
436
516
596
516
432
512
592
512
432
512
592
512
432
512
556
444
328
468
604
584
560
700
836
816
792
776
764
588
412
400
384
208
232
412
592
512
432
512
592
512
432
512
592
512
436
516
596
516
436
516
596
516
436
516
596
516
436
516
596
516
436
516
600
524
448
532
620
544
468
556
640
564
492
576
652
564
480
556
628
544
460
532
608
524
440
516
596
516
436
512
592
512
432
512
592
512
432
512
592
512
432
512
592
512
432
512
592
512
432
512
592
512
432
512
592
512
432
512
592
512
432
512
592
512
436
516
596
516
444
536
628
560
488
580
672
600
532
624
716
624
532
600
672
580
488
560
628
536
444
516
596
516
436
516
592
512
432
512
592
512
432
512
592
512
396
444
488
468
444
584
720
700
676
816
952
776
604
588
572
400
224
208
392
412
432
512
592
512
432
512
592
512
432
512
596
516
436
516
596
516
436
516
596
516
436
516
596
516
436
516
596
516
440
524
608
532
460
544
628
556
480
564
652
576
492
564
640
556
468
544
620
532
448
524
600
516
436
516
596
512
432
512
592
512
432
512
592
512
432
512
592
512
432
512
592
512
432
512
592
512
432
512
592
512
432
512
592
512
432
512
592
512
432
512
596
516
436
516
604
536
468
560
648
580
512
600
692
624
556
624
692
600
512
580
648
560
468
536
604
516
436
516
596
516
432
512
592
512
432
512
592
512
432
512
556
444
328
468
604
584
560
700
836
816
792
776
764
588
412
400
384
208
232
412
592
512
432
512
592
512
432
512
592
512
436
516
596
516
436
516
596
516
436
516
596
516
436
516
596
516
436
516
600
524
448
532
620
544
468
556
640
564
492
576
652
564
480
556
628
544
460
532
608
524
440
516
596
516
436
512
592
512
432
512
592
512
432
512
592
512
432
512
592
512
432
512
592
512
432
512
592
512
432
512
592
512
432
512
592
512
432
512
592
512
436
516
596
516
444
536
628
560
488
580
672
600
532
624
716
624
532
600
672
580
488
560
628
536
444
516
596
516
436
516
592
512
432
512
592
512
432
512
592
512
396
444
488
468
444
584
720
700
676
816
952
776
604
588
572
400
224
208
392
412
432
512
592
512
432
512
592
512
432
512
596
516
436
516
596
516
436
516
596
516
436
516
596
516
436
516
596
516
440
524
608
532
460
544
628
556
480
564
652
576
492
564
640
556
468
544
620
532
448
524
600
516
436
516
596
512
432
512
592
512
432
512
592
512
432
512
592
512
432
512
592
512
432
512
592
512
432
512
592
512
432
512
592
512
432
512
592
512
432
512
596
516
436
516
604
536
468
560
648
580
512
600
692
624
556
624
692
600
512
580
648
560
468
536
604
516
436
516
596
516
432
512
592
512
432
512
592
512
432
512
556
444
328
468
604
584
560
700
836
816
792
776
764
588
412
400
384
208
232
412
592
512
432
512
592
512
432
512
592
512
436
516
596
516
436
516
596
516
436
516
596
516
436
516
596
516
436
516
600
524
448
532
620
544
468
556
640
564
492
576
652
564
480
556
628
544
460
532
608
524
440
516
596
516
436
512
592
512
432
512
592
512
432
512
592
512
432
512
592
512
432
512
592
512
432
512
592
512
432
512
592
512
432
512
592
512
432
512
592
512
436
516
596
516
444
536
628
560
488
580
672
600
532
624
716
624
532
600
672
580
488
560
628
536
444
516
596
516
436
516
592
512
432
512
592
512
432
512
592
512
396
444
488
468
444
584
720
700
676
816
952
776
604
588
572
400
224
208
392
412
432
512
592
512
432
512
592
512
432
512
596
516
436
516
596
516
436
516
596
516
436
516
596
516
436
516
596
516
440
524
608
532
460
544
628
556
480
564
652
576
492
564
640
556
468
544
620
532
448
524
600
516
436
516
596
512
432
512
592
512
432
512
592
512
432
512
592
512
432
512
592
512
432
512
592
512
432
512
592
512
432
512
592
512
432
512
592
512
432
512
596
516
436
516
604
536
468
560
648
580
512
600
692
624
556
624
692
600
512
580
648
560
468
536
604
516
436
516
596
516
432
512
592
512
432
512
592
512
432
512
556
444
328
468
604
584
560
700
836
816
792
776
764
588
412
400
384
208
232
412
592
512
432
512
592
512
432
512
592
512
436
516
596
516
436
516
596
516
436
516
596
516
436
516
596
516
436
516
600
524
448
532
620
544
468
556
640
564
492
576
652
564
480
556
628
544
460
532
608
524
440
516
596
516
436
512
592
512
432
512
592
512
432
512
592
512
432
512
592
512
432
512
592
512
432
512
592
512
432
512
592
512
432
512
592
512
432
512
592
512
436
516
596
516
444
536
628
560
488
580
672
600
532
624
716
624
532
600
672
580
488
560
628
536
444
516
596
516
436
516
592
512
432
512
592
512
432
512
592
512
396
444
488
468
444
584
720
700
676
816
952
776
604
588
572
400
224
208
392
412
432
512
592
512
432
512
592
512
432
512
596
516
436
516
596
516
436
516
596
516
436
516
596
516
436
516
596
516
440
524
608
532
460
544
628
556
480
564
652
576
492
564
640
556
468
544
620
532
448
524
600
516
436
516
596
512
432
512
592
512
432
512
592
512
432
512
592
512
432
512
592
512
432
512
592
512
432
512
592
512
432
512
592
512
432
512
592
512
432
512
596
516
436
516
604
536
468
560
648
580
512
600
692
624
556
624
692
600
512
580
648
560
468
536
604
516
436
516
596
516
432
512
592
512
432
512
592
512
432
512
556
444
328
468
604
584
560
700
836
816
792
776
764
588
412
400
384
208
232
412
592
512
432
512
592
512
432
512
592
512
436
516
596
516
436
516
596
516
436
516
596
516
436
516
596
516
436
516
600
524
448
532
620
544
468
556
640
564
492
576
652
564
480
556
628
544
460
532
608
524
440
516
596
516
436
512
592
512
432
512
592
512
432
512
592
512
432
512
592
512
432
512
592
512
432
512
592
512
432
512
592
512
432
512
592
512
432
512
592
512
436
516
596
516
444
536
628
560
488
580
672
600
532
624
716
624
532
600
672
580
488
560
628
536
444
516
596
516
436
516
592
512
432
512
592
512
432
512
592
512
396
444
488
468
444
584
720
700
676
816
952
776
604
588
572
400
224
208
392
412
432
512
592
512
432
512
592
512
432
512
596
516
436
516
596
516
436
516
596
516
436
516
596
516
436
516
596
516
440
524
608
532
460
544
628
556
480
564
652
576
492
564
640
556
468
544
620
532
448
524
600
516
436
516
596
512
432
512
592
512
432
512
592
512
432
512
592
512
432
512
592
512
432
512
592
512
432
512
592
512
432
512
592
512
432
512
592
512
432
512
596
516
436
516
604
536
468
560
648
580
512
600
692
624
556
624
692
600
512
580
648
560
468
536
604
516
436
516
596
516
432
512
592
512
432
512
592
512
432
512
556
444
328
468
604
584
560
700
836
816
792
776
764
588
412
400
384
208
232
412
592
512
432
512
592
512
432
512
592
512
436
516
596
516
436
516
596
516
436
516
596
516
436
516
596
516
436
516
600
524
448
532
620
544
468
556
640
564
492
576
652
564
480
556
628
544
460
532
608
524
440
516
596
516
436
512
592
512
432
512
592
512
432
512
592
512
432
512
592
512
432
512
592
512
432
512
592
512
432
512
592
512
432
512
592
512
432
512
592
512
436
516
596
516
444
536
628
560
488
580
672
600
532
624
716
624
532
600
672
580
488
560
628
536
444
516
596
516
436
516
592
512
432
512
592
512
432
512
592
512
396
444
488
468
444
584
720
700
676
816
952
776
604
588
572
400
224
208
392
412
432
512
592
512
432
512
592
512
432
512
596
516
436
516
596
516
436
516
596
516
436
516
596
516
436
516
596
516
440
524
608
532
460
544
628
556
480
564
652
576
492
564
640
556
468
544
620
532
448
524
600
516
436
516
596
512
432
512
592
512
432
512
592
512
432
512
592
512
432
512
592
512
432
512
592
512
432
512
592
512
432
512
592
512
432
512
592
512
432
512
596
516
436
516
604
536
468
560
648
580
512
600
692
624
556
624
692
600
512
580
648
560
468
536
604
516
436
516
596
516
432
512
592
512
432
512
592
512
432
512
556
444
328
468
604
584
560
700
836
816
792
776
764
588
412
400
384
208
232
412
592
512
432
512
592
512
432
512
592
512
436
516
596
516
436
516
596
516
436
516
596
516
436
516
596
516
436
516
600
524
448
532
620
544
468
556
640
564
492
576
652
564
480
556
628
544
460
532
608
524
440
516
596
516
436
512
592
512
432
512
592
512
432
512
592
512
432
512
592
512
432
512
592
512
432
512
592
512
432
512
592
512
432
512
592
512
432
512
592
512
436
516
596
516
444
536
628
560
488
580
672
600
532
624
716
624
532
600
672
580
488
560
628
536
444
516
596
516
436
516
592
512
432
512
592
512
432
512
592
512
396
444
488
468
444
584
720
700
676
816
952
776
604
588
572
400
224
208
392
412
432
512
592
512
432
512
592
512
432
512
596
516
436
516
596
516
436
516
596
516
436
516
596
516
436
516
596
516
440
524
608
532
460
544
628
556
480
564
652
576
492
564
640
556
468
544
620
532
448
524
600
516
436
516
596
512
432
512
592
512
432
512
592
512
432
512
592
512
432
512
592
512
432
512
592
512
432
512
592
512
432
512
592
512
432
512
592
512
432
512
596
516
436
516
604
536
468
560
648
580
512
600
692
624
556
624
692
600
512
580
648
560
468
536
604
516
436
516
596
516
432
512
592
512
432
512
592
512
432
512
556
444
328
468
604
584
560
700
836
816
792
776
764
588
412
400
384
208
232
412
592
512
432
512
592
512
432
512
592
512
436
516
596
516
436
516
596
516
436
516
596
516
436
516
596
516
436
516
600
524
448
532
620
544
468
556
640
564
492
576
652
564
480
556
628
544
460
532
608
524
440
516
596
516
436
512
592
512
432
512
592
512
432
512
592
512
432
512
592
512
432
512
592
512
432
512
592
512
432
512
592
512
432
512
592
512
432
512
592
512
436
516
596
516
444
536
628
560
488
580
672
600
532
624
716
624
532
600
672
580
488
560
628
536
444
516
596
516
436
516
592
512
432
512
592
512
432
512
592
512
396
444
488
468
444
584
720
700
676
816
952
776
604
588
572
400
224
208
392
412
432
512
592
512
432
512
592
512
432
512
596
516
436
516
596
516
436
516
596
516
436
516
596
516
436
516
596
516
440
524
608
532
460
544
628
556
480
564
652
576
492
564
640
556
468
544
620
532
448
524
600
516
436
516
596
512
432
512
592
512
432
512
592
512
432
512
592
512
432
512
592
512
432
512
592
512
432
512
592
512
432
512
592
512
432
512
592
512
432
512
596
516
436
516
604
536
468
560
648
580
512
600
692
624
556
624
692
600
512
580
648
560
468
536
604
516
436
516
596
516
432
512
592
512
432
512
592
512
432
512
556
444
328
468
604
584
560
700
836
816
792
776
764
588
412
400
384
208
232
412
592
512
432
512
592
512
432
512
592
512
436
516
596
516
436
516
596
516
436
516
596
516
436
516
596
516
436
516
600
524
448
532
620
544
468
556
640
564
492
576
652
564
480
556
628
544
460
532
608
524
440
516
596
516
436
512
592
512
432
512
592
512
432
512
592
512
432
512
592
512
432
512
592
512
432
512
592
512
432
512
592
512
432
512
592
512
432
512
592
512
436
516
596
516
444
536
628
560
488
580
672
600
532
624
716
624
532
600
672
580
488
560
628
536
444
516
596
516
436
516
592
512
432
512
592
512
432
512
592
512
396
444
488
468
444
584
720
700
676
816
952
776
604
588
572
400
224
208
392
412
432
512
592
512
432
512
592
512
432
512
596
516
436
516
596
516
436
516
596
516
436
516
596
516
436
516
596
516
440
524
608
532
460
544
628
556
480
564
652
576
492
564
640
556
468
544
620
532
448
524
600
516
436
516
596
512
432
512
592
512
432
512
592
512
432
512
592
512
432
512
592
512
432
512
592
512
432
512
592
512
432
512
592
512
432
512
592
512
432
512
596
516
436
516
604
536
468
560
648
580
512
600
692
624
556
624
692
600
512
580
648
560
468
536
604
516
436
516
596
516
432
512
592
512
432
512
592
512
432
512
556
444
328
468
604
584
560
700
836
816
792
776
764
588
412
400
384
208
232
412
592
512
432
512
592
512
432
512
592
512
436
516
596
516
436
516
596
516
436
516
596
516
436
516
596
516
436
516
600
524
448
532
620
544
468
556
640
564
492
576
652
564
480
556
628
544
460
532
608
524
440
516
596
516
436
512
592
512
432
512
592
512
432
512
592
512
432
512
592
512
432
512
592
512
432
512
592
512
432
512
592
512
432
512
592
512
432
512
592
512
436
516
596
516
444
536
628
560
488
580
672
600
532
624
716
624
532
600
672
580
488
560
628
536
444
516
596
516
436
516
592
512
432
512
592
512
432
512
592
512
396
444
488
468
444
584
720
700
676
816
952
776
604
588
572
400
224
208
392
412
432
512
592
512
432
512
592
512
432
512
596
516
436
516
596
516
436
516
596
516
436
516
596
516
436
516
596
516
440
524
608
532
460
544
628
556
480
564
652
576
492
564
640
556
468
544
620
532
448
524
600
516
436
516
596
512
432
512
592
512
432
512
592
512
432
512
592
512
432
512
592
512
432
512
592
512
432
512
592
512
432
512
592
512
432
512
592
512
432
512
596
516
436
516
604
536
468
560
648
580
512
600
692
624
556
624
692
600
512
580
648
560
468
536
604
516
436
516
596
516
432
512
592
512
432
512
592
512
432
512
556
444
328
468
604
584
560
700
836
816
792
776
764
588
412
400
384
208
232
412
592
512
432
512
592
512
432
512
592
512
436
516
596
516
436
516
596
516
436
516
596
516
436
516
596
516
436
516
600
524
448
532
620
544
468
556
640
564
492
576
652
564
480
556
628
544
460
532
608
524
440
516
596
516
436
512
592
512
432
512
592
512
432
512
592
512
432
512
592
512
432
512
592
512
432
512
592
512
432
512
592
512
432
512
592
512
432
512
592
512
436
516
596
516
444
536
628
560
488
580
672
600
532
624
716
624
532
600
672
580
488
560
628
536
444
516
596
516
436
516
592
512
432
512
592
512
432
512
592
512
396
444
488
468
444
584
720
700
676
816
952
776
604
588
572
400
224
208
392
412
432
512
592
512
432
512
592
512
432
512
596
516
436
516
596
516
436
516
596
516
436
516
596
516
436
516
596
516
440
524
608
532
460
544